   %ne(0)/m^3=1.803074460437068E+019
   %  sqrt(\psi_p)            density
   0.000005263629090   1.000000000000000
   0.005263629090000   0.999980606000000
   0.010524698900000   0.999922461000000
   0.015783356100000   0.999825620000000
   0.021039488400000   0.999690138000000
   0.026292919900000   0.999516078000000
   0.031544111900000   0.999303478000000
   0.036793197500000   0.999052382000000
   0.042040162100000   0.998762837000000
   0.047284997600000   0.998434890000000
   0.052527935100000   0.998068571000000
   0.057768890700000   0.997663929000000
   0.063007416500000   0.997221046000000
   0.068243151200000   0.996740011000000
   0.073475996200000   0.996220895000000
   0.078705643200000   0.995663795000000
   0.083931468600000   0.995068856000000
   0.089153445800000   0.994436164000000
   0.094371872800000   0.993765765000000
   0.099586901800000   0.993057714000000
   0.104798406000000   0.992312106000000
   0.110006781000000   0.991528956000000
   0.115212346000000   0.990708281000000
   0.120415133000000   0.989850137000000
   0.125614742000000   0.988954656000000
   0.130811052000000   0.988021928000000
   0.136003936000000   0.987052051000000
   0.141193108000000   0.986045154000000
   0.146377931000000   0.985001451000000
   0.151558370000000   0.983921042000000
   0.156734635000000   0.982803978000000
   0.161906749000000   0.981650343000000
   0.167074475000000   0.980460284000000
   0.172237920000000   0.979233869000000
   0.177397505000000   0.977971088000000
   0.182553298000000   0.976672005000000
   0.187705183000000   0.975336735000000
   0.192853038000000   0.973965394000000
   0.197997406000000   0.972557919000000
   0.203138450000000   0.971114339000000
   0.208276314000000   0.969634684000000
   0.213410771000000   0.968119090000000
   0.218542397000000   0.966567455000000
   0.223671242000000   0.964979823000000
   0.228797291000000   0.963356260000000
   0.233920100000000   0.961696971000000
   0.239039765000000   0.960001993000000
   0.244156286000000   0.958271396000000
   0.249269605000000   0.956505265000000
   0.254379526000000   0.954703740000000
   0.259486028000000   0.952866901000000
   0.264589493000000   0.950994680000000
   0.269690000000000   0.949087113000000
   0.274787583000000   0.947144249000000
   0.279881771000000   0.945166336000000
   0.284972916000000   0.943153306000000
   0.290060894000000   0.941105275000000
   0.295145578000000   0.939022362000000
   0.300226598000000   0.936904793000000
   0.305303933000000   0.934752656000000
   0.310377864000000   0.932565907000000
   0.315448441000000   0.930344597000000
   0.320515706000000   0.928088777000000
   0.325579140000000   0.925798757000000
   0.330639121000000   0.923474440000000
   0.335695473000000   0.921115985000000
   0.340747930000000   0.918723594000000
   0.345795907000000   0.916297633000000
   0.350838884000000   0.913838454000000
   0.355876932000000   0.911346126000000
   0.360909754000000   0.908820904000000
   0.365937028000000   0.906263064000000
   0.370957580000000   0.903673332000000
   0.375971123000000   0.901052000000000
   0.380976881000000   0.898399631000000
   0.385973435000000   0.895717155000000
   0.390958592000000   0.893005966000000
   0.395927181000000   0.890269167000000
   0.400876105000000   0.887508844000000
   0.405798165000000   0.884729495000000
   0.410681755000000   0.881938347000000
   0.415499338000000   0.879152210000000
   0.420200846000000   0.876401874000000
   0.424699856000000   0.873741023000000
   0.428811843000000   0.871284282000000
   0.432017737000000   0.869352472000000
   0.434080300000000   0.868102005000000
   0.435200902000000   0.867420123000000
   0.435779877000000   0.867067129000000
   0.436128781000000   0.866854181000000
   0.436360449000000   0.866712691000000
   0.436526951000000   0.866610955000000
   0.436651855000000   0.866534610000000
   0.436753129000000   0.866472693000000
   0.436835421000000   0.866422370000000
   0.436906418000000   0.866378948000000
   0.436969070000000   0.866340622000000
   0.437024539000000   0.866306687000000
   0.437076374000000   0.866274970000000
   0.437125763000000   0.866244747000000
   0.437172560000000   0.866216107000000
   0.437218817000000   0.866187794000000
   0.437264710000000   0.866159701000000
   0.437311898000000   0.866130813000000
   0.437360644000000   0.866100967000000
   0.437411322000000   0.866069935000000
   0.437467674000000   0.866035424000000
   0.437532463000000   0.865995741000000
   0.437600892000000   0.865953822000000
   0.437685440000000   0.865902019000000
   0.437778136000000   0.865845212000000
   0.437904836000000   0.865767548000000
   0.438065251000000   0.865669185000000
   0.438288716000000   0.865532101000000
   0.438623251000000   0.865326750000000
   0.439169740000000   0.864990958000000
   0.440206302000000   0.864352888000000
   0.442105463000000   0.863179932000000
   0.445253379000000   0.861224600000000
   0.449244057000000   0.858725844000000
   0.453667959000000   0.855929768000000
   0.458320999000000   0.852959303000000
   0.463080015000000   0.849889830000000
   0.467892091000000   0.846753894000000
   0.472734230000000   0.843565643000000
   0.477593066000000   0.840333404000000
   0.482460668000000   0.837062193000000
   0.487330568000000   0.833756242000000
   0.492199202000000   0.830417962000000
   0.497064083000000   0.827049108000000
   0.501923308000000   0.823651095000000
   0.506774995000000   0.820225373000000
   0.511617446000000   0.816773312000000
   0.516450321000000   0.813295346000000
   0.521272786000000   0.809792278000000
   0.526084106000000   0.806264859000000
   0.530883621000000   0.802713807000000
   0.535670345000000   0.799140097000000
   0.540442912000000   0.795545021000000
   0.545201919000000   0.791928407000000
   0.549946890000000   0.788290893000000
   0.554677370000000   0.784633110000000
   0.559392931000000   0.780955684000000
   0.564093161000000   0.777259234000000
   0.568777451000000   0.773544548000000
   0.573444201000000   0.769813224000000
   0.578094448000000   0.766064767000000
   0.582727841000000   0.762299784000000
   0.587344042000000   0.758518883000000
   0.591942721000000   0.754722671000000
   0.596523556000000   0.750911753000000
   0.601086237000000   0.747086735000000
   0.605630461000000   0.743248221000000
   0.610155932000000   0.739396817000000
   0.614661256000000   0.735534078000000
   0.619146983000000   0.731659909000000
   0.623613141000000   0.727774656000000
   0.628059466000000   0.723878915000000
   0.632485701000000   0.719973287000000
   0.636891594000000   0.716058368000000
   0.641276899000000   0.712134757000000
   0.645641369000000   0.708203056000000
   0.649984764000000   0.704263865000000
   0.654306843000000   0.700317789000000
   0.658607364000000   0.696365438000000
   0.662886086000000   0.692407426000000
   0.667142758000000   0.688444379000000
   0.671377124000000   0.684476930000000
   0.675588916000000   0.680505731000000
   0.679777847000000   0.676531455000000
   0.683943603000000   0.672554803000000
   0.688085839000000   0.668576515000000
   0.692204157000000   0.664597384000000
   0.696298094000000   0.660618275000000
   0.700367094000000   0.656640154000000
   0.704410469000000   0.652664123000000
   0.708427348000000   0.648691485000000
   0.712416588000000   0.644723823000000
   0.716376648000000   0.640763148000000
   0.720305392000000   0.636812099000000
   0.724199734000000   0.632874322000000
   0.728055054000000   0.628955087000000
   0.731864170000000   0.625062386000000
   0.735615188000000   0.621209207000000
   0.739287649000000   0.617417640000000
   0.742843329000000   0.613728652000000
   0.746210018000000   0.610219427000000
   0.749245274000000   0.607042063000000
   0.751719082000000   0.604442895000000
   0.753498398000000   0.602568115000000
   0.754483435000000   0.601528322000000
   0.755104271000000   0.600872278000000
   0.755463782000000   0.600492132000000
   0.755703457000000   0.600238599000000
   0.755874439000000   0.600057683000000
   0.756002644000000   0.599922002000000
   0.756102984000000   0.599815795000000
   0.756184540000000   0.599729459000000
   0.756252650000000   0.599657350000000
   0.756310272000000   0.599596340000000
   0.756360543000000   0.599543110000000
   0.756404614000000   0.599496442000000
   0.756444738000000   0.599453951000000
   0.756482197000000   0.599414280000000
   0.756516121000000   0.599378351000000
   0.756548467000000   0.599344091000000
   0.756579313000000   0.599311421000000
   0.756608864000000   0.599280119000000
   0.756637827000000   0.599249439000000
   0.756666282000000   0.599219296000000
   0.756694562000000   0.599189338000000
   0.756723232000000   0.599158965000000
   0.756752030000000   0.599128456000000
   0.756782197000000   0.599096494000000
   0.756812712000000   0.599064163000000
   0.756846003000000   0.599028890000000
   0.756880533000000   0.598992302000000
   0.756918063000000   0.598952532000000
   0.756959654000000   0.598908457000000
   0.757005397000000   0.598859980000000
   0.757057035000000   0.598805252000000
   0.757116732000000   0.598741978000000
   0.757186955000000   0.598667541000000
   0.757271190000000   0.598578241000000
   0.757376315000000   0.598466782000000
   0.757519282000000   0.598315176000000
   0.757720710000000   0.598101528000000
   0.757990132000000   0.597815672000000
   0.758391175000000   0.597389978000000
   0.759037223000000   0.596703745000000
   0.760206748000000   0.595459990000000
   0.762070569000000   0.593473913000000
   0.764632400000000   0.590736105000000
   0.767649892000000   0.587499550000000
   0.770914532000000   0.583983550000000
   0.774304687000000   0.580316577000000
   0.777757108000000   0.576565716000000
   0.781239011000000   0.572765925000000
   0.784732104000000   0.568936867000000
   0.788225653000000   0.565090224000000
   0.791712701000000   0.561233699000000
   0.795186544000000   0.557374852000000
   0.798645853000000   0.553515361000000
   0.802088870000000   0.549657412000000
   0.805514245000000   0.545802761000000
   0.808920906000000   0.541952878000000
   0.812307972000000   0.538109031000000
   0.815670403000000   0.534277256000000
   0.819009305000000   0.530456631000000
   0.822325307000000   0.526646763000000
   0.825617415000000   0.522849119000000
   0.828884479000000   0.519065364000000
   0.832121858000000   0.515301249000000
   0.835322445000000   0.511565489000000
   0.838487883000000   0.507856649000000
   0.841612513000000   0.504181864000000
   0.844688533000000   0.500550898000000
   0.847692233000000   0.496992515000000
   0.850578148000000   0.493561770000000
   0.853301298000000   0.490313827000000
   0.855771124000000   0.487359048000000
   0.857859121000000   0.484854410000000
   0.859349801000000   0.483062544000000
   0.860363766000000   0.481841933000000
   0.860945272000000   0.481141267000000
   0.861316615000000   0.480693582000000
   0.861567108000000   0.480391483000000
   0.861745089000000   0.480176781000000
   0.861878726000000   0.480015543000000
   0.861981150000000   0.479891948000000
   0.862065393000000   0.479790281000000
   0.862133594000000   0.479707966000000
   0.862191107000000   0.479638547000000
   0.862239095000000   0.479580620000000
   0.862287084000000   0.479522689000000
   0.862321515000000   0.479481124000000
   0.862354681000000   0.479441083000000
   0.862387847000000   0.479401041000000
   0.862419843000000   0.479362410000000
   0.862444156000000   0.479333054000000
   0.862468470000000   0.479303697000000
   0.862492784000000   0.479274339000000
   0.862517097000000   0.479244980000000
   0.862539198000000   0.479218292000000
   0.862559995000000   0.479193178000000
   0.862580792000000   0.479168064000000
   0.862601590000000   0.479142948000000
   0.862621931000000   0.479118383000000
   0.862642214000000   0.479093887000000
   0.862662498000000   0.479069391000000
   0.862682861000000   0.479044796000000
   0.862704819000000   0.479018277000000
   0.862726776000000   0.478991757000000
   0.862748734000000   0.478965236000000
   0.862772629000000   0.478936373000000
   0.862798441000000   0.478905195000000
   0.862824253000000   0.478874016000000
   0.862852994000000   0.478839298000000
   0.862884822000000   0.478800848000000
   0.862916985000000   0.478761994000000
   0.862956966000000   0.478713692000000
   0.862997910000000   0.478664225000000
   0.863048144000000   0.478603531000000
   0.863105077000000   0.478534738000000
   0.863171908000000   0.478453980000000
   0.863253424000000   0.478355468000000
   0.863354711000000   0.478233050000000
   0.863484350000000   0.478076344000000
   0.863657459000000   0.477867056000000
   0.863898271000000   0.477575844000000
   0.864251671000000   0.477148334000000
   0.864800074000000   0.476484582000000
   0.865763202000000   0.475317855000000
   0.867153542000000   0.473631315000000
   0.869096259000000   0.471270185000000
   0.871411810000000   0.468449020000000
   0.873992586000000   0.465295872000000
   0.876705248000000   0.461971535000000
   0.879473047000000   0.458569012000000
   0.882274060000000   0.455114739000000
   0.885092320000000   0.451628109000000
   0.887909547000000   0.448131645000000
   0.890719789000000   0.444632781000000
   0.893520538000000   0.441134734000000
   0.896297085000000   0.437656075000000
   0.899051641000000   0.434194303000000
   0.901783672000000   0.430750346000000
   0.904478127000000   0.427343523000000
   0.907121838000000   0.423990980000000
   0.909716317000000   0.420691355000000
   0.912242632000000   0.417469366000000
   0.914613345000000   0.414437701000000
   0.916809753000000   0.411621914000000
   0.918754839000000   0.409122682000000
   0.920305468000000   0.407126491000000
   0.921317875000000   0.405821361000000
   0.922025330000000   0.404908503000000
   0.922464626000000   0.404341310000000
   0.922762752000000   0.403956233000000
   0.922964097000000   0.403696093000000
   0.923112761000000   0.403503982000000
   0.923226547000000   0.403356920000000
   0.923316937000000   0.403240084000000
   0.923389970000000   0.403145675000000
   0.923451160000000   0.403066569000000
   0.923502808000000   0.402999795000000
   0.923547124000000   0.402942496000000
   0.923586157000000   0.402892027000000
   0.923621692000000   0.402846080000000
   0.923651763000000   0.402807194000000
   0.923680420000000   0.402770137000000
   0.923705734000000   0.402737401000000
   0.923730184000000   0.402705783000000
   0.923751686000000   0.402677976000000
   0.923773188000000   0.402650168000000
   0.923792433000000   0.402625278000000
   0.923811076000000   0.402601167000000
   0.923829719000000   0.402577055000000
   0.923846503000000   0.402555347000000
   0.923863246000000   0.402533692000000
   0.923879988000000   0.402512037000000
   0.923895936000000   0.402491410000000
   0.923911740000000   0.402470967000000
   0.923927545000000   0.402450525000000
   0.923943363000000   0.402430063000000
   0.923959194000000   0.402409586000000
   0.923975025000000   0.402389108000000
   0.923991073000000   0.402368347000000
   0.924007894000000   0.402346588000000
   0.924024715000000   0.402324828000000
   0.924041740000000   0.402302805000000
   0.924060512000000   0.402278520000000
   0.924079284000000   0.402254234000000
   0.924098964000000   0.402228773000000
   0.924120644000000   0.402200725000000
   0.924142324000000   0.402172676000000
   0.924167455000000   0.402140161000000
   0.924192992000000   0.402107119000000
   0.924222572000000   0.402068847000000
   0.924253564000000   0.402028745000000
   0.924289629000000   0.401982078000000
   0.924330088000000   0.401929722000000
   0.924376076000000   0.401870209000000
   0.924429636000000   0.401800893000000
   0.924492968000000   0.401718927000000
   0.924568977000000   0.401620545000000
   0.924663632000000   0.401498017000000
   0.924784014000000   0.401342169000000
   0.924941801000000   0.401137866000000
   0.925194526000000   0.400810562000000
   0.925495074000000   0.400421208000000
   0.925980825000000   0.399791658000000
   0.926697189000000   0.398862624000000
   0.927876935000000   0.397331076000000
   0.929408388000000   0.395340034000000
   0.931290423000000   0.392888704000000
   0.933446160000000   0.390074787000000
   0.935689429000000   0.387139704000000
   0.938001506000000   0.384107222000000
   0.940359834000000   0.381006368000000
   0.942717662000000   0.377898387000000
   0.945074106000000   0.374784454000000
   0.947398136000000   0.371705740000000
   0.949695359000000   0.368655107000000
   0.951937656000000   0.365670290000000
   0.954080722000000   0.362810983000000
   0.956140781000000   0.360056364000000
   0.957980450000000   0.357591420000000
   0.959531394000000   0.355509653000000
   0.960774317000000   0.353838899000000
   0.961591730000000   0.352738941000000
   0.962214955000000   0.351899667000000
   0.962584170000000   0.351402201000000
   0.962834396000000   0.351064948000000
   0.963015148000000   0.350821278000000
   0.963151402000000   0.350637564000000
   0.963256980000000   0.350495194000000
   0.963340427000000   0.350382655000000
   0.963410011000000   0.350288805000000
   0.963467505000000   0.350211257000000
   0.963516644000000   0.350144974000000
   0.963558325000000   0.350088748000000
   0.963594788000000   0.350039560000000
   0.963627999000000   0.349994756000000
   0.963657101000000   0.349955494000000
   0.963683602000000   0.349919740000000
   0.963707730000000   0.349887188000000
   0.963730301000000   0.349856735000000
   0.963750348000000   0.349829687000000
   0.963770394000000   0.349802639000000
   0.963787884000000   0.349779040000000
   0.963804751000000   0.349756281000000
   0.963821618000000   0.349733521000000
   0.963836803000000   0.349713031000000
   0.963851400000000   0.349693335000000
   0.963865997000000   0.349673638000000
   0.963880320000000   0.349654310000000
   0.963893561000000   0.349636443000000
   0.963906801000000   0.349618576000000
   0.963920041000000   0.349600708000000
   0.963933149000000   0.349583018000000
   0.963945950000000   0.349565744000000
   0.963958750000000   0.349548470000000
   0.963971550000000   0.349531195000000
   0.963984476000000   0.349513751000000
   0.963997754000000   0.349495831000000
   0.964011032000000   0.349477911000000
   0.964024310000000   0.349459991000000
   0.964038105000000   0.349441373000000
   0.964052776000000   0.349421572000000
   0.964067447000000   0.349401771000000
   0.964082118000000   0.349381969000000
   0.964098747000000   0.349359524000000
   0.964115723000000   0.349336610000000
   0.964132699000000   0.349313697000000
   0.964152264000000   0.349287288000000
   0.964172451000000   0.349260039000000
   0.964193653000000   0.349231420000000
   0.964217949000000   0.349198623000000
   0.964242846000000   0.349165013000000
   0.964272139000000   0.349125469000000
   0.964303526000000   0.349083097000000
   0.964338691000000   0.349035622000000
   0.964379832000000   0.348980078000000
   0.964426689000000   0.348916813000000
   0.964481297000000   0.348843080000000
   0.964545794000000   0.348755987000000
   0.964625360000000   0.348648540000000
   0.964723240000000   0.348516349000000
   0.964847932000000   0.348347928000000
   0.965018872000000   0.348117004000000
   0.965260929000000   0.347789938000000
   0.965625827000000   0.347296734000000
   0.966096056000000   0.346660888000000
