  p(0)=7.787582442590549(kPa)
  %sqrt(\psi_p)              pressure
   0.000005212703820   0.006064568770000
   0.005212703820000   0.006064208840000
   0.010422865500000   0.006063129770000
   0.015630652400000   0.006061332570000
   0.020836039600000   0.006058818220000
   0.026038711200000   0.006055587870000
   0.031239204600000   0.006051642100000
   0.036437663200000   0.006046981580000
   0.041634177100000   0.006041606930000
   0.046828518500000   0.006035519110000
   0.052021011500000   0.006028718440000
   0.057211571700000   0.006021205720000
   0.062399979000000   0.006012981990000
   0.067585552200000   0.006004049300000
   0.072768333300000   0.005994408700000
   0.077948086400000   0.005984061810000
   0.083124574500000   0.005973010440000
   0.088297171200000   0.005961257500000
   0.093466195700000   0.005948803940000
   0.098631854600000   0.005935650890000
   0.103794349000000   0.005921799480000
   0.108953613000000   0.005907251530000
   0.114110013000000   0.005892007700000
   0.119263775000000   0.005876068960000
   0.124414870000000   0.005859437100000
   0.129562905000000   0.005842115270000
   0.134707493000000   0.005824106940000
   0.139848566000000   0.005805414750000
   0.144985856000000   0.005786042250000
   0.150119065000000   0.005765993420000
   0.155247750000000   0.005745273170000
   0.160372459000000   0.005723882570000
   0.165493274000000   0.005701824660000
   0.170610287000000   0.005679102560000
   0.175723098000000   0.005655721810000
   0.180832215000000   0.005631684070000
   0.185937789000000   0.005606992680000
   0.191039893000000   0.005581651490000
   0.196138398000000   0.005555665640000
   0.201233411000000   0.005529039300000
   0.206325397000000   0.005501774890000
   0.211414538000000   0.005473876450000
   0.216500992000000   0.005445348310000
   0.221584474000000   0.005416197590000
   0.226665365000000   0.005386427900000
   0.231743619000000   0.005356045540000
   0.236819131000000   0.005325057500000
   0.241891591000000   0.005293472420000
   0.246960818000000   0.005261298590000
   0.252027035000000   0.005228542060000
   0.257090288000000   0.005195210300000
   0.262150671000000   0.005161310750000
   0.267207969000000   0.005126853280000
   0.272262533000000   0.005091844230000
   0.277314442000000   0.005056292090000
   0.282363633000000   0.005020206690000
   0.287409928000000   0.004983599070000
   0.292452875000000   0.004946482720000
   0.297492731000000   0.004908866360000
   0.302529448000000   0.004870761310000
   0.307563034000000   0.004832178770000
   0.312593368000000   0.004793131380000
   0.317620480000000   0.004753630890000
   0.322644674000000   0.004713687260000
   0.327665922000000   0.004673313360000
   0.332684100000000   0.004632523180000
   0.337698691000000   0.004591334360000
   0.342709560000000   0.004549761850000
   0.347716656000000   0.004507820260000
   0.352719783000000   0.004465525720000
   0.357718778000000   0.004422894520000
   0.362712982000000   0.004379947490000
   0.367702575000000   0.004336698650000
   0.372687473000000   0.004293164510000
   0.377667361000000   0.004249363910000
   0.382641784000000   0.004205317260000
   0.387609212000000   0.004161054870000
   0.392569286000000   0.004116596990000
   0.397520892000000   0.004071970950000
   0.402462442000000   0.004027208680000
   0.407391829000000   0.003982347220000
   0.412303539000000   0.003937455150000
   0.417194421000000   0.003892580000000
   0.422057460000000   0.003847805160000
   0.426881430000000   0.003803253490000
   0.431646505000000   0.003759128180000
   0.436301138000000   0.003715927990000
   0.440780271000000   0.003674279530000
   0.444945962000000   0.003635489480000
   0.448501579000000   0.003602345880000
   0.451046107000000   0.003578611620000
   0.452611500000000   0.003564005120000
   0.453460422000000   0.003556082530000
   0.453961728000000   0.003551403650000
   0.454288266000000   0.003548355800000
   0.454512054000000   0.003546266940000
   0.454679173000000   0.003544706990000
   0.454813063000000   0.003543457200000
   0.454909075000000   0.003542560970000
   0.455002374000000   0.003541690050000
   0.455073895000000   0.003541022420000
   0.455136323000000   0.003540439660000
   0.455191837000000   0.003539921450000
   0.455242052000000   0.003539452690000
   0.455288295000000   0.003539021010000
   0.455331471000000   0.003538617960000
   0.455371674000000   0.003538242670000
   0.455410532000000   0.003537879920000
   0.455448389000000   0.003537526520000
   0.455485332000000   0.003537181650000
   0.455522202000000   0.003536837460000
   0.455559207000000   0.003536492010000
   0.455596923000000   0.003536139930000
   0.455636016000000   0.003535774980000
   0.455676603000000   0.003535396080000
   0.455719268000000   0.003534997790000
   0.455765523000000   0.003534565980000
   0.455815989000000   0.003534094860000
   0.455871682000000   0.003533574940000
   0.455934158000000   0.003532991690000
   0.456007012000000   0.003532311550000
   0.456091877000000   0.003531519280000
   0.456194951000000   0.003530557000000
   0.456322876000000   0.003529362720000
   0.456489228000000   0.003527809660000
   0.456715162000000   0.003525700320000
   0.457040101000000   0.003522666590000
   0.457552578000000   0.003517881820000
   0.458432440000000   0.003509666570000
   0.459953460000000   0.003495464090000
   0.462496970000000   0.003471713240000
   0.466043121000000   0.003438602120000
   0.470155356000000   0.003400216680000
   0.474581323000000   0.003358927700000
   0.479185471000000   0.003316017660000
   0.483873084000000   0.003272387760000
   0.488606741000000   0.003228404220000
   0.493367050000000   0.003184264770000
   0.498142127000000   0.003140096670000
   0.502924436000000   0.003095986290000
   0.507708249000000   0.003052002550000
   0.512489865000000   0.003008195010000
   0.517266830000000   0.002964601130000
   0.522037252000000   0.002921252560000
   0.526799634000000   0.002878176750000
   0.531552453000000   0.002835400700000
   0.536293996000000   0.002792952310000
   0.541024242000000   0.002750843640000
   0.545742452000000   0.002709092490000
   0.550447969000000   0.002667715270000
   0.555140195000000   0.002626727110000
   0.559818587000000   0.002586141930000
   0.564482640000000   0.002545972510000
   0.569130507000000   0.002506242340000
   0.573762977000000   0.002466951450000
   0.578379750000000   0.002428108570000
   0.582980438000000   0.002389722410000
   0.587564669000000   0.002351800690000
   0.592132089000000   0.002314350260000
   0.596682355000000   0.002277377050000
   0.601215142000000   0.002240886100000
   0.605730133000000   0.002204881570000
   0.610226750000000   0.002169368910000
   0.614703959000000   0.002134356250000
   0.619162507000000   0.002099837060000
   0.623602121000000   0.002065812130000
   0.628022537000000   0.002032281450000
   0.632423500000000   0.001999244300000
   0.636804759000000   0.001966699150000
   0.641166074000000   0.001934643800000
   0.645507205000000   0.001903075350000
   0.649827920000000   0.001871990230000
   0.654127991000000   0.001841384270000
   0.658407192000000   0.001811252660000
   0.662665298000000   0.001781590060000
   0.666902083000000   0.001752390590000
   0.671117322000000   0.001723647890000
   0.675310784000000   0.001695355190000
   0.679482227000000   0.001667505300000
   0.683631401000000   0.001640090690000
   0.687758037000000   0.001613103570000
   0.691861842000000   0.001586535970000
   0.695942491000000   0.001560379780000
   0.699999614000000   0.001534626860000
   0.704032777000000   0.001509269210000
   0.708041468000000   0.001484299060000
   0.712025057000000   0.001459709140000
   0.715982753000000   0.001435492940000
   0.719913548000000   0.001411645040000
   0.723816111000000   0.001388161780000
   0.727688643000000   0.001365042060000
   0.731528668000000   0.001342288590000
   0.735332619000000   0.001319910160000
   0.739095283000000   0.001297924840000
   0.742808689000000   0.001276366180000
   0.746460145000000   0.001255294220000
   0.750028822000000   0.001234814490000
   0.753477512000000   0.001215124270000
   0.756729025000000   0.001196644810000
   0.759657164000000   0.001180069180000
   0.762081579000000   0.001166389360000
   0.763765230000000   0.001156911650000
   0.764908429000000   0.001150486250000
   0.765591893000000   0.001146648550000
   0.766021761000000   0.001144236210000
   0.766313056000000   0.001142602120000
   0.766521896000000   0.001141430880000
   0.766677239000000   0.001140559840000
   0.766799089000000   0.001139876690000
   0.766896643000000   0.001139329810000
   0.766976036000000   0.001138884790000
   0.767043113000000   0.001138508830000
   0.767103069000000   0.001138172800000
   0.767151490000000   0.001137901430000
   0.767198074000000   0.001137640370000
   0.767236278000000   0.001137426290000
   0.767274482000000   0.001137212210000
   0.767306863000000   0.001137030760000
   0.767337373000000   0.001136859810000
   0.767367882000000   0.001136688860000
   0.767394679000000   0.001136538730000
   0.767420048000000   0.001136396590000
   0.767445418000000   0.001136254450000
   0.767470605000000   0.001136113340000
   0.767493496000000   0.001135985100000
   0.767516386000000   0.001135856870000
   0.767539276000000   0.001135728640000
   0.767562006000000   0.001135601300000
   0.767584601000000   0.001135474730000
   0.767607197000000   0.001135348150000
   0.767630120000000   0.001135219750000
   0.767654158000000   0.001135085100000
   0.767678195000000   0.001134950460000
   0.767702582000000   0.001134813870000
   0.767729748000000   0.001134661710000
   0.767756915000000   0.001134509550000
   0.767785787000000   0.001134347850000
   0.767817760000000   0.001134168780000
   0.767849814000000   0.001133989270000
   0.767888259000000   0.001133773970000
   0.767927225000000   0.001133555760000
   0.767973787000000   0.001133295030000
   0.768024787000000   0.001133009450000
   0.768082511000000   0.001132686240000
   0.768150383000000   0.001132306240000
   0.768232195000000   0.001131848220000
   0.768331935000000   0.001131289880000
   0.768454430000000   0.001130604230000
   0.768613945000000   0.001129711490000
   0.768826384000000   0.001128522770000
   0.769124672000000   0.001126854080000
   0.769565430000000   0.001124389230000
   0.770258405000000   0.001120515950000
   0.771389246000000   0.001114200500000
   0.773177657000000   0.001104225370000
   0.775546861000000   0.001091033290000
   0.778375581000000   0.001075313410000
   0.781478819000000   0.001058102490000
   0.784736393000000   0.001040069390000
   0.788079143000000   0.001021595130000
   0.791464100000000   0.001002913040000
   0.794866204000000   0.000984156096000
   0.798274042000000   0.000965381515000
   0.801680160000000   0.000946624631000
   0.805079538000000   0.000927907519000
   0.808468697000000   0.000909244021000
   0.811843164000000   0.000890653761000
   0.815200388000000   0.000872146213000
   0.818540811000000   0.000853714808000
   0.821863477000000   0.000835361132000
   0.825167556000000   0.000817086515000
   0.828452311000000   0.000798892258000
   0.831710013000000   0.000780819012000
   0.834945602000000   0.000762837734000
   0.838158120000000   0.000744952555000
   0.841346379000000   0.000727169404000
   0.844507918000000   0.000709501887000
   0.847630374000000   0.000692019696000
   0.850718259000000   0.000674698762000
   0.853766314000000   0.000657570239000
   0.856767688000000   0.000640674876000
   0.859695203000000   0.000624168721000
   0.862515427000000   0.000608244330000
   0.865195290000000   0.000593093212000
   0.867671865000000   0.000579076511000
   0.869847441000000   0.000566753085000
   0.871540204000000   0.000557158816000
   0.872738378000000   0.000550365219000
   0.873502002000000   0.000546034544000
   0.874009851000000   0.000543154058000
   0.874347990000000   0.000541236008000
   0.874581282000000   0.000539912619000
   0.874780235000000   0.000538783989000
   0.874910717000000   0.000538043765000
   0.875029751000000   0.000537368472000
   0.875116836000000   0.000536874423000
   0.875188543000000   0.000536467607000
   0.875250152000000   0.000536118083000
   0.875302819000000   0.000535819283000
   0.875348800000000   0.000535558414000
   0.875389334000000   0.000535328449000
   0.875425202000000   0.000535124954000
   0.875457887000000   0.000534939511000
   0.875488383000000   0.000534766493000
   0.875515254000000   0.000534614041000
   0.875540945000000   0.000534468279000
   0.875564472000000   0.000534334797000
   0.875586970000000   0.000534207152000
   0.875607766000000   0.000534089165000
   0.875628263000000   0.000533972872000
   0.875646943000000   0.000533866889000
   0.875665623000000   0.000533760905000
   0.875683326000000   0.000533660464000
   0.875700509000000   0.000533562977000
   0.875717691000000   0.000533465489000
   0.875734042000000   0.000533372717000
   0.875750347000000   0.000533280210000
   0.875766627000000   0.000533187842000
   0.875782674000000   0.000533096793000
   0.875798721000000   0.000533005745000
   0.875814841000000   0.000532914287000
   0.875831252000000   0.000532821176000
   0.875847663000000   0.000532728064000
   0.875864433000000   0.000532632912000
   0.875881828000000   0.000532534218000
   0.875899222000000   0.000532435524000
   0.875917727000000   0.000532330530000
   0.875936725000000   0.000532222743000
   0.875956267000000   0.000532111863000
   0.875977483000000   0.000531991484000
   0.875998854000000   0.000531870231000
   0.876022903000000   0.000531733778000
   0.876047370000000   0.000531594956000
   0.876074862000000   0.000531438968000
   0.876104096000000   0.000531273097000
   0.876135636000000   0.000531094137000
   0.876171622000000   0.000530889952000
   0.876211334000000   0.000530664629000
   0.876255972000000   0.000530411351000
   0.876306866000000   0.000530122574000
   0.876365432000000   0.000529790263000
   0.876435186000000   0.000529394473000
   0.876517945000000   0.000528924885000
   0.876619525000000   0.000528348495000
   0.876746212000000   0.000527629640000
   0.876910115000000   0.000526699591000
   0.877128273000000   0.000525461668000
   0.877430809000000   0.000523744912000
   0.877906669000000   0.000521044552000
   0.878597978000000   0.000517121487000
   0.879596878000000   0.000511452826000
   0.881115007000000   0.000502837889000
   0.883075281000000   0.000491715659000
   0.885351979000000   0.000478802920000
   0.887828062000000   0.000464768782000
   0.890432042000000   0.000450025151000
   0.893128118000000   0.000434782614000
   0.895848948000000   0.000419430213000
   0.898586790000000   0.000404019954000
   0.901332449000000   0.000388612449000
   0.904072499000000   0.000373292094000
   0.906804070000000   0.000358084134000
   0.909524478000000   0.000343013032000
   0.912218107000000   0.000328174398000
   0.914891137000000   0.000313543100000
   0.917542945000000   0.000299131889000
   0.920144261000000   0.000285107387000
   0.922702276000000   0.000271436641000
   0.925216142000000   0.000258129928000
   0.927623905000000   0.000245515211000
   0.929903013000000   0.000233702398000
   0.932036490000000   0.000222766129000
   0.933914139000000   0.000213245581000
   0.935393191000000   0.000205819039000
   0.936477812000000   0.000200415790000
   0.937242122000000   0.000196630748000
   0.937777725000000   0.000193989680000
   0.938121393000000   0.000192300063000
   0.938367464000000   0.000191092706000
   0.938550148000000   0.000190197689000
   0.938690747000000   0.000189509632000
   0.938801726000000   0.000188967004000
   0.938891834000000   0.000188526731000
   0.938966450000000   0.000188162371000
   0.939029664000000   0.000187853835000
   0.939083198000000   0.000187592651000
   0.939130057000000   0.000187364119000
   0.939170646000000   0.000187166225000
   0.939206533000000   0.000186991306000
   0.939239414000000   0.000186831077000
   0.939268939000000   0.000186687232000
   0.939295517000000   0.000186557773000
   0.939320523000000   0.000186435989000
   0.939343066000000   0.000186326224000
   0.939364239000000   0.000186223143000
   0.939384566000000   0.000186124198000
   0.939402597000000   0.000186036440000
   0.939420628000000   0.000185948692000
   0.939437478000000   0.000185866699000
   0.939453063000000   0.000185790875000
   0.939468648000000   0.000185715059000
   0.939483782000000   0.000185641444000
   0.939497621000000   0.000185574138000
   0.939511459000000   0.000185506839000
   0.939525298000000   0.000185439546000
   0.939538482000000   0.000185375442000
   0.939551276000000   0.000185313239000
   0.939564070000000   0.000185251041000
   0.939576865000000   0.000185188849000
   0.939589421000000   0.000185127818000
   0.939601876000000   0.000185067291000
   0.939614330000000   0.000185006769000
   0.939626784000000   0.000184946253000
   0.939639480000000   0.000184884568000
   0.939652298000000   0.000184822294000
   0.939665116000000   0.000184760027000
   0.939677934000000   0.000184697766000
   0.939691546000000   0.000184631655000
   0.939705431000000   0.000184564223000
   0.939719316000000   0.000184496798000
   0.939733422000000   0.000184428308000
   0.939749076000000   0.000184352313000
   0.939764729000000   0.000184276326000
   0.939780382000000   0.000184200347000
   0.939798292000000   0.000184113431000
   0.939816412000000   0.000184025504000
   0.939834978000000   0.000183935422000
   0.939856258000000   0.000183832188000
   0.939877538000000   0.000183728971000
   0.939901819000000   0.000183611216000
   0.939926948000000   0.000183489374000
   0.939955610000000   0.000183350425000
   0.939986238000000   0.000183201980000
   0.940027196000000   0.000183003518000
   0.940068154000000   0.000182805116000
   0.940109112000000   0.000182606774000
   0.940158518000000   0.000182367602000
   0.940226173000000   0.000182040230000
   0.940293828000000   0.000181713022000
   0.940370741000000   0.000181341237000
   0.940478953000000   0.000180818521000
   0.940602061000000   0.000180224356000
   0.940760344000000   0.000179461236000
   0.940976520000000   0.000178420474000
   0.941277698000000   0.000176973325000
   0.941696346000000   0.000174967305000
   0.942306464000000   0.000172055579000
   0.943257680000000   0.000167544335000
   0.944541301000000   0.000161512876000
   0.946177009000000   0.000153924151000
   0.948036809000000   0.000145433975000
   0.950139752000000   0.000136020288000
   0.952322773000000   0.000126469285000
   0.954559858000000   0.000116929230000
   0.956841477000000   0.000107472610000
   0.959122805000000   0.000098309482000
   0.961403814000000   0.000089456851300
   0.963653677000000   0.000081045186000
   0.965880365000000   0.000073050467100
   0.968051717000000   0.000065587774000
   0.970138972000000   0.000058740277800
   0.972171504000000   0.000052394574200
   0.973973555000000   0.000047046375200
   0.975605967000000   0.000042436412800
   0.977013033000000   0.000038648338400
   0.978034449000000   0.000036009274700
   0.978747610000000   0.000034223157400
   0.979278802000000   0.000032923466300
   0.979584840000000   0.000032186694300
   0.979890878000000   0.000031458785900
   0.980088665000000   0.000030993093100
   0.980231745000000   0.000030658541700
   0.980345563000000   0.000030393812500
   0.980437250000000   0.000030181462700
